x utau delta99 delta* theta beta Ue Reth 
2.00683594e+02 5.14841867e-02 8.20007194e+00 1.51140055e+00 9.59598456e-01 4.73623327e-02 9.88775901e-01 4.26972522e+02
2.02148438e+02 5.14262279e-02 8.22927805e+00 1.51739671e+00 9.63537534e-01 4.86686395e-02 9.88610853e-01 4.28653648e+02
2.03613281e+02 5.13693792e-02 8.25819601e+00 1.52342137e+00 9.67494118e-01 4.99938922e-02 9.88448083e-01 4.30342967e+02
2.05078125e+02 5.13132967e-02 8.28688999e+00 1.52947774e+00 9.71468757e-01 5.13293319e-02 9.88288028e-01 4.32040924e+02
2.06542969e+02 5.12572732e-02 8.31735160e+00 1.53845435e+00 9.78319758e-01 5.28374960e-02 9.88132522e-01 4.35019307e+02
2.08007812e+02 5.12008009e-02 8.34882100e+00 1.54435435e+00 9.82200037e-01 5.41899470e-02 9.87930139e-01 4.36655258e+02
2.09472656e+02 5.11444220e-02 8.37985504e+00 1.55028218e+00 9.86097568e-01 5.55850435e-02 9.87729182e-01 4.38298805e+02
2.10937500e+02 5.10888071e-02 8.41049370e+00 1.55623992e+00 9.90015357e-01 5.70210789e-02 9.87529902e-01 4.39951396e+02
2.12402344e+02 5.10341059e-02 8.44076365e+00 1.56222786e+00 9.93953666e-01 5.84622535e-02 9.87332291e-01 4.41613147e+02
2.13867188e+02 5.09802410e-02 8.47073153e+00 1.56824757e+00 9.97912793e-01 5.99246661e-02 9.87136543e-01 4.43284283e+02
2.15332031e+02 5.09271452e-02 8.50045909e+00 1.57430118e+00 1.00189324e+00 6.14311567e-02 9.86942921e-01 4.44965150e+02
2.16796875e+02 5.08745967e-02 8.52997141e+00 1.58039049e+00 1.00589521e+00 6.29593936e-02 9.86751607e-01 4.46655919e+02
2.18261719e+02 5.08217225e-02 8.55929216e+00 1.58651753e+00 1.00991878e+00 6.44970569e-02 9.86562815e-01 4.48356740e+02
2.19726562e+02 5.07677271e-02 8.58843184e+00 1.59268183e+00 1.01396271e+00 6.60707453e-02 9.86376422e-01 4.50067008e+02
2.21191406e+02 5.07131371e-02 8.61737173e+00 1.59888043e+00 1.01802475e+00 6.76692185e-02 9.86191953e-01 4.51785518e+02
2.22656250e+02 5.06587798e-02 8.64610446e+00 1.60511337e+00 1.02210522e+00 6.92791107e-02 9.86009334e-01 4.53512381e+02
2.24121094e+02 5.06050402e-02 8.67763797e+00 1.61424053e+00 1.02906606e+00 7.10913937e-02 9.85815165e-01 4.56511018e+02
2.25585938e+02 5.05516372e-02 8.70913465e+00 1.62032872e+00 1.03306289e+00 7.27560776e-02 9.85590721e-01 4.58179738e+02
2.27050781e+02 5.04983408e-02 8.74031099e+00 1.62645385e+00 1.03708152e+00 7.44532613e-02 9.85367749e-01 4.59858006e+02
2.28515625e+02 5.04452309e-02 8.77119044e+00 1.63261638e+00 1.04112233e+00 7.61745531e-02 9.85146238e-01 4.61545985e+02
2.29980469e+02 5.03926335e-02 8.80180532e+00 1.63881864e+00 1.04518720e+00 7.79184930e-02 9.84926404e-01 4.63244611e+02
2.31445312e+02 5.03409455e-02 8.83220248e+00 1.64506435e+00 1.04927896e+00 7.96729655e-02 9.84708658e-01 4.64955333e+02
2.32910156e+02 5.02897515e-02 8.86240225e+00 1.65135312e+00 1.05339692e+00 8.14521412e-02 9.84492903e-01 4.66677808e+02
2.34375000e+02 5.02387148e-02 8.89242399e+00 1.65768502e+00 1.05754070e+00 8.32559166e-02 9.84279103e-01 4.68411843e+02
2.35839844e+02 5.01881563e-02 8.92230058e+00 1.66406212e+00 1.06171193e+00 8.50973353e-02 9.84067479e-01 4.70158280e+02
2.37304688e+02 5.01382008e-02 8.95207448e+00 1.67048712e+00 1.06591283e+00 8.70093873e-02 9.83858353e-01 4.71918259e+02
2.38769531e+02 5.00890850e-02 8.98175611e+00 1.67696165e+00 1.07014483e+00 8.89576339e-02 9.83651883e-01 4.73692488e+02
2.40234375e+02 5.00406873e-02 9.01130210e+00 1.68348175e+00 1.07440447e+00 9.09165641e-02 9.83447454e-01 4.75479155e+02
2.41699219e+02 4.99923565e-02 9.04430756e+00 1.69285336e+00 1.08153768e+00 9.31320599e-02 9.83213802e-01 4.78522248e+02
2.43164062e+02 4.99434222e-02 9.07612812e+00 1.69919751e+00 1.08569214e+00 9.51588118e-02 9.82961927e-01 4.80237319e+02
2.44628906e+02 4.98938288e-02 9.10758708e+00 1.70557948e+00 1.08986698e+00 9.72174973e-02 9.82710292e-01 4.81960576e+02
2.46093750e+02 4.98435193e-02 9.13871001e+00 1.71200001e+00 1.09406196e+00 9.92995713e-02 9.82458933e-01 4.83691926e+02
2.47558594e+02 4.97920110e-02 9.16950662e+00 1.71845893e+00 1.09827645e+00 1.01432815e-01 9.82207726e-01 4.85431026e+02
2.49023438e+02 4.97396338e-02 9.20006186e+00 1.72496404e+00 1.10251672e+00 1.03601386e-01 9.81957561e-01 4.87181085e+02
2.50488281e+02 4.96880544e-02 9.23043524e+00 1.73151893e+00 1.10678680e+00 1.05789047e-01 9.81708843e-01 4.88944073e+02
2.51953125e+02 4.96380850e-02 9.26064015e+00 1.73812195e+00 1.11108596e+00 1.08042550e-01 9.81461335e-01 4.90719560e+02
2.53417969e+02 4.95888136e-02 9.29066714e+00 1.74477061e+00 1.11541252e+00 1.10376139e-01 9.81214685e-01 4.92506613e+02
2.54882812e+02 4.95403690e-02 9.32054297e+00 1.75146604e+00 1.11976808e+00 1.12746452e-01 9.80968978e-01 4.94305985e+02
2.56347656e+02 4.94932300e-02 9.35033708e+00 1.75821339e+00 1.12415692e+00 1.15126796e-01 9.80724777e-01 4.96119843e+02
2.57812500e+02 4.94468962e-02 9.38140289e+00 1.76808174e+00 1.13160056e+00 1.17820636e-01 9.80491275e-01 4.99286015e+02
2.59277344e+02 4.94004615e-02 9.41384290e+00 1.77468312e+00 1.13591005e+00 1.20270261e-01 9.80202885e-01 5.01040039e+02
2.60742188e+02 4.93534716e-02 9.44603259e+00 1.78133648e+00 1.14025177e+00 1.22727639e-01 9.79915156e-01 5.02807497e+02
2.62207031e+02 4.93056557e-02 9.47798774e+00 1.78804276e+00 1.14462575e+00 1.25244281e-01 9.79628145e-01 5.04588420e+02
2.63671875e+02 4.92564345e-02 9.50972484e+00 1.79480211e+00 1.14903182e+00 1.27841708e-01 9.79341830e-01 5.06382715e+02
2.65136719e+02 4.92065730e-02 9.54128585e+00 1.80161648e+00 1.15347166e+00 1.30481204e-01 9.79056388e-01 5.08191211e+02
2.66601562e+02 4.91572738e-02 9.57272002e+00 1.80848979e+00 1.15794811e+00 1.33140448e-01 9.78772231e-01 5.10015354e+02
2.68066406e+02 4.91085955e-02 9.60405447e+00 1.81542240e+00 1.16246067e+00 1.35820245e-01 9.78489333e-01 5.11854917e+02
2.69531250e+02 4.90601953e-02 9.63531223e+00 1.82241560e+00 1.16700895e+00 1.38536624e-01 9.78207780e-01 5.13709754e+02
2.70996094e+02 4.90112612e-02 9.66650557e+00 1.82947256e+00 1.17159345e+00 1.41303275e-01 9.77927863e-01 5.15580245e+02
2.72460938e+02 4.89615725e-02 9.69766680e+00 1.83659600e+00 1.17621500e+00 1.44114653e-01 9.77649837e-01 5.17466882e+02
2.73925781e+02 4.89119467e-02 9.72880602e+00 1.84378568e+00 1.18087244e+00 1.46965772e-01 9.77373613e-01 5.19369102e+02
2.75390625e+02 4.88618092e-02 9.76210289e+00 1.85406699e+00 1.18858087e+00 1.50249706e-01 9.77091698e-01 5.22608623e+02
2.76855469e+02 4.88098999e-02 9.79575409e+00 1.86109796e+00 1.19313722e+00 1.53220485e-01 9.76767970e-01 5.24438201e+02
2.78320312e+02 4.87560808e-02 9.82906645e+00 1.86818059e+00 1.19772002e+00 1.56202859e-01 9.76443559e-01 5.26277700e+02
2.79785156e+02 4.87011190e-02 9.86209018e+00 1.87531808e+00 1.20233301e+00 1.59249132e-01 9.76118730e-01 5.28128897e+02
2.81250000e+02 4.86462322e-02 9.89488692e+00 1.88251465e+00 1.20698028e+00 1.62370145e-01 9.75793901e-01 5.29993798e+02
2.82714844e+02 4.85921116e-02 9.92748843e+00 1.88977306e+00 1.21166365e+00 1.65531580e-01 9.75469352e-01 5.31873339e+02
2.84179688e+02 4.85390761e-02 9.95993585e+00 1.89709601e+00 1.21638454e+00 1.68733730e-01 9.75145353e-01 5.33768279e+02
2.85644531e+02 4.84868484e-02 9.99225013e+00 1.90448369e+00 1.22114302e+00 1.71997677e-01 9.74821866e-01 5.35678613e+02
2.87109375e+02 4.84342953e-02 1.00244533e+01 1.91193817e+00 1.22594024e+00 1.75326513e-01 9.74499055e-01 5.37604922e+02
2.88574219e+02 4.83811661e-02 1.00565527e+01 1.91945906e+00 1.23077541e+00 1.78701051e-01 9.74176819e-01 5.39546792e+02
2.90039062e+02 4.83281402e-02 1.00885386e+01 1.92704455e+00 1.23564686e+00 1.82118705e-01 9.73854906e-01 5.41503341e+02
2.91503906e+02 4.82759048e-02 1.01204202e+01 1.93469587e+00 1.24055488e+00 1.85574400e-01 9.73533406e-01 5.43474727e+02
2.92968750e+02 4.82239474e-02 1.01557625e+01 1.94535021e+00 1.24848687e+00 1.89526110e-01 9.73181054e-01 5.46751698e+02
2.94433594e+02 4.81710882e-02 1.01900021e+01 1.95283796e+00 1.25329547e+00 1.93058259e-01 9.72810094e-01 5.48648317e+02
2.95898438e+02 4.81174342e-02 1.02239502e+01 1.96038517e+00 1.25813508e+00 1.96639570e-01 9.72438107e-01 5.50556323e+02
2.97363281e+02 4.80637355e-02 1.02576546e+01 1.96799579e+00 1.26300829e+00 2.00279469e-01 9.72065483e-01 5.52477045e+02
2.98828125e+02 4.80095360e-02 1.02911531e+01 1.97567242e+00 1.26791639e+00 2.03981670e-01 9.71692474e-01 5.54411166e+02
3.00292969e+02 4.79536010e-02 1.03244788e+01 1.98341635e+00 1.27285956e+00 2.07741299e-01 9.71319179e-01 5.56358806e+02
3.01757812e+02 4.78958087e-02 1.03576335e+01 1.99122841e+00 1.27783831e+00 2.11571610e-01 9.70945620e-01 5.58320178e+02
3.03222656e+02 4.78371945e-02 1.03906147e+01 1.99910811e+00 1.28285316e+00 2.15464481e-01 9.70571692e-01 5.60295432e+02
3.04687500e+02 4.77792126e-02 1.04234106e+01 2.00705299e+00 1.28790409e+00 2.19428738e-01 9.70197091e-01 5.62284362e+02
3.06152344e+02 4.77225586e-02 1.04560099e+01 2.01506056e+00 1.29299088e+00 2.23458090e-01 9.69821505e-01 5.64286662e+02
3.07617188e+02 4.76668316e-02 1.04884912e+01 2.02313643e+00 1.29811769e+00 2.27533853e-01 9.69445521e-01 5.66304473e+02
3.09082031e+02 4.76112949e-02 1.05232646e+01 2.03440655e+00 1.30640304e+00 2.32179878e-01 9.69061108e-01 5.69692968e+02
3.10546875e+02 4.75552696e-02 1.05585432e+01 2.04234560e+00 1.31145475e+00 2.36346619e-01 9.68638375e-01 5.71646427e+02
3.12011719e+02 4.74985659e-02 1.05936649e+01 2.05036252e+00 1.31655298e+00 2.40561287e-01 9.68215669e-01 5.73618250e+02
3.13476562e+02 4.74418312e-02 1.06286376e+01 2.05845651e+00 1.32169644e+00 2.44801315e-01 9.67792876e-01 5.75607781e+02
3.14941406e+02 4.73854879e-02 1.06634622e+01 2.06662774e+00 1.32688391e+00 2.49093868e-01 9.67369984e-01 5.77614448e+02
3.16406250e+02 4.73286447e-02 1.06981781e+01 2.07488064e+00 1.33211678e+00 2.53438999e-01 9.66947417e-01 5.79639096e+02
3.17871094e+02 4.72705733e-02 1.07328127e+01 2.08321863e+00 1.33739601e+00 2.57828308e-01 9.66525473e-01 5.81682291e+02
3.19335938e+02 4.72111596e-02 1.07673518e+01 2.09164106e+00 1.34272029e+00 2.62253883e-01 9.66104020e-01 5.83743360e+02
3.20800781e+02 4.71505715e-02 1.08018028e+01 2.10014915e+00 1.34809033e+00 2.66719299e-01 9.65683133e-01 5.85822642e+02
3.22265625e+02 4.70893160e-02 1.08362033e+01 2.10874701e+00 1.35350949e+00 2.71225616e-01 9.65263216e-01 5.87921815e+02
3.23730469e+02 4.70287543e-02 1.08705916e+01 2.11743811e+00 1.35898097e+00 2.75793977e-01 9.64844647e-01 5.90042483e+02
3.25195312e+02 4.69697243e-02 1.09067931e+01 2.12944135e+00 1.36769812e+00 2.81030194e-01 9.64426572e-01 5.93569985e+02
3.26660156e+02 4.69110636e-02 1.09441821e+01 2.13799955e+00 1.37309145e+00 2.85644504e-01 9.63960894e-01 5.95622908e+02
3.28125000e+02 4.68512704e-02 1.09813745e+01 2.14664456e+00 1.37853016e+00 2.90285338e-01 9.63495322e-01 5.97693314e+02
3.29589844e+02 4.67900839e-02 1.10184386e+01 2.15538191e+00 1.38401725e+00 2.94964559e-01 9.63030435e-01 5.99782830e+02
3.31054688e+02 4.67278993e-02 1.10553801e+01 2.16421211e+00 1.38955325e+00 2.99711096e-01 9.62566308e-01 6.01891714e+02
3.32519531e+02 4.66648187e-02 1.10921773e+01 2.17313202e+00 1.39513645e+00 3.04519282e-01 9.62102637e-01 6.04019007e+02
3.33984375e+02 4.66009605e-02 1.11288730e+01 2.18214470e+00 1.40076990e+00 3.09394194e-01 9.61639762e-01 6.06166215e+02
3.35449219e+02 4.65367688e-02 1.11655242e+01 2.19125520e+00 1.40645784e+00 3.14328885e-01 9.61178249e-01 6.08335510e+02
3.36914062e+02 4.64729023e-02 1.12020820e+01 2.20045873e+00 1.41219682e+00 3.19340836e-01 9.60717669e-01 6.10525097e+02
3.38378906e+02 4.64094852e-02 1.12385040e+01 2.20975091e+00 1.41798336e+00 3.24426943e-01 9.60257636e-01 6.12733207e+02
3.39843750e+02 4.63461419e-02 1.12747964e+01 2.21913140e+00 1.42381703e+00 3.29570716e-01 9.59798150e-01 6.14959630e+02
3.41308594e+02 4.62828763e-02 1.13135368e+01 2.23177142e+00 1.43288646e+00 3.35515191e-01 9.59323522e-01 6.18570760e+02
3.42773438e+02 4.62189002e-02 1.13524262e+01 2.24096848e+00 1.43860860e+00 3.40699832e-01 9.58812206e-01 6.20709967e+02
3.44238281e+02 4.61536906e-02 1.13910789e+01 2.25025516e+00 1.44437921e+00 3.45928048e-01 9.58301096e-01 6.22867582e+02
3.45703125e+02 4.60871683e-02 1.14294929e+01 2.25963005e+00 1.45019735e+00 3.51216391e-01 9.57790089e-01 6.25043092e+02
3.47167969e+02 4.60200702e-02 1.14676702e+01 2.26909085e+00 1.45606162e+00 3.56569658e-01 9.57279018e-01 6.27235757e+02
3.48632812e+02 4.59527809e-02 1.15056796e+01 2.27864219e+00 1.46197566e+00 3.61984817e-01 9.56768413e-01 6.29447459e+02
3.50097656e+02 4.58862772e-02 1.15435591e+01 2.28828882e+00 1.46794349e+00 3.67438696e-01 9.56258797e-01 6.31680242e+02
3.51562500e+02 4.58215163e-02 1.15812824e+01 2.29802755e+00 1.47396363e+00 3.72875863e-01 9.55749910e-01 6.33933274e+02
3.53027344e+02 4.57582804e-02 1.16188286e+01 2.30785518e+00 1.48003347e+00 3.78297476e-01 9.55241511e-01 6.36205232e+02
3.54492188e+02 4.56955271e-02 1.16561472e+01 2.31776760e+00 1.48614810e+00 3.83763478e-01 9.54733248e-01 6.38493753e+02
3.55957031e+02 4.56315039e-02 1.16932589e+01 2.32776616e+00 1.49230628e+00 3.89279728e-01 9.54225319e-01 6.40798395e+02
3.57421875e+02 4.55661135e-02 1.17341528e+01 2.34091071e+00 1.50165930e+00 3.95797199e-01 9.53679017e-01 6.44445433e+02
3.58886719e+02 4.55007416e-02 1.17739664e+01 2.35072477e+00 1.50770985e+00 4.01292393e-01 9.53120734e-01 6.46663284e+02
3.60351562e+02 4.54361025e-02 1.18136686e+01 2.36064178e+00 1.51382273e+00 4.06824694e-01 9.52564119e-01 6.48905947e+02
3.61816406e+02 4.53729640e-02 1.18532706e+01 2.37066206e+00 1.51999861e+00 4.12369661e-01 9.52009285e-01 6.51173756e+02
3.63281250e+02 4.53113046e-02 1.18927516e+01 2.38078172e+00 1.52623342e+00 4.17895816e-01 9.51455958e-01 6.53464747e+02
3.64746094e+02 4.52509718e-02 1.19320807e+01 2.39099764e+00 1.53252275e+00 4.23400860e-01 9.50903929e-01 6.55776856e+02
3.66210938e+02 4.51915362e-02 1.19712731e+01 2.40131169e+00 1.53886525e+00 4.28887967e-01 9.50353461e-01 6.58109661e+02
3.67675781e+02 4.51311161e-02 1.20103540e+01 2.41172655e+00 1.54526006e+00 4.34396372e-01 9.49804899e-01 6.60463008e+02
3.69140625e+02 4.50688640e-02 1.20492883e+01 2.42223944e+00 1.55170418e+00 4.39955440e-01 9.49258068e-01 6.62835470e+02
3.70605469e+02 4.50050122e-02 1.20880310e+01 2.43284566e+00 1.55819446e+00 4.45578503e-01 9.48712614e-01 6.65225432e+02
3.72070312e+02 4.49397714e-02 1.21295775e+01 2.44678261e+00 1.56800738e+00 4.52378768e-01 9.48148059e-01 6.69016418e+02
3.73535156e+02 4.48748124e-02 1.21712590e+01 2.45719643e+00 1.57438509e+00 4.58003525e-01 9.47553717e-01 6.71316499e+02
3.75000000e+02 4.48105715e-02 1.22128357e+01 2.46771918e+00 1.58082526e+00 4.63614321e-01 9.46961951e-01 6.73641617e+02
3.76464844e+02 4.47463623e-02 1.22542922e+01 2.47834985e+00 1.58732589e+00 4.69184096e-01 9.46372785e-01 6.75990910e+02
3.77929688e+02 4.46820711e-02 1.22955845e+01 2.48908389e+00 1.59388297e+00 4.74785157e-01 9.45785920e-01 6.78362432e+02
3.79394531e+02 4.46178375e-02 1.23366952e+01 2.49991908e+00 1.60049475e+00 4.80461937e-01 9.45201275e-01 6.80755355e+02
3.80859375e+02 4.45536140e-02 1.23776295e+01 2.51085454e+00 1.60716047e+00 4.86135333e-01 9.44618905e-01 6.83169375e+02
3.82324219e+02 4.44886891e-02 1.24184097e+01 2.52189106e+00 1.61387980e+00 4.91804012e-01 9.44039030e-01 6.85604485e+02
3.83789062e+02 4.44223227e-02 1.24590635e+01 2.53303163e+00 1.62065377e+00 4.97523576e-01 9.43462057e-01 6.88061404e+02
3.85253906e+02 4.43549460e-02 1.24996111e+01 2.54427844e+00 1.62748347e+00 5.03272658e-01 9.42888319e-01 6.90540820e+02
3.86718750e+02 4.42870412e-02 1.25428447e+01 2.55893468e+00 1.63770383e+00 5.10313417e-01 9.42299807e-01 6.94443601e+02
3.88183594e+02 4.42183306e-02 1.25863558e+01 2.56996496e+00 1.64440405e+00 5.16005692e-01 9.41677623e-01 6.96824324e+02
3.89648438e+02 4.41488488e-02 1.26295095e+01 2.58108825e+00 1.65115296e+00 5.21745199e-01 9.41057252e-01 6.99223262e+02
3.91113281e+02 4.40796766e-02 1.26722811e+01 2.59230014e+00 1.65794891e+00 5.27504671e-01 9.40438463e-01 7.01639515e+02
3.92578125e+02 4.40118013e-02 1.27146823e+01 2.60360079e+00 1.66479300e+00 5.33203681e-01 9.39821417e-01 7.04073652e+02
3.94042969e+02 4.39451236e-02 1.27567544e+01 2.61499192e+00 1.67168552e+00 5.38835783e-01 9.39206404e-01 7.06525985e+02
3.95507812e+02 4.38789037e-02 1.27985465e+01 2.62647499e+00 1.67862576e+00 5.44491790e-01 9.38593710e-01 7.08996409e+02
3.96972656e+02 4.38123556e-02 1.28401100e+01 2.63805237e+00 1.68561403e+00 5.50211832e-01 9.37983702e-01 7.11485320e+02
3.98437500e+02 4.37452571e-02 1.28814873e+01 2.64972693e+00 1.69265218e+00 5.55944978e-01 9.37376775e-01 7.13993779e+02
3.99902344e+02 4.36779391e-02 1.29227270e+01 2.66150231e+00 1.69974313e+00 5.61647590e-01 9.36773396e-01 7.16523365e+02
4.01367188e+02 4.36110239e-02 1.29667733e+01 2.67670741e+00 1.71026160e+00 5.68706611e-01 9.36152778e-01 7.20479766e+02
4.02832031e+02 4.35453511e-02 1.30109443e+01 2.68824264e+00 1.71721560e+00 5.74234757e-01 9.35502238e-01 7.22906565e+02
4.04296875e+02 4.34801356e-02 1.30547697e+01 2.69987390e+00 1.72422285e+00 5.79731079e-01 9.34854589e-01 7.25353938e+02
4.05761719e+02 4.34145897e-02 1.30982784e+01 2.71160343e+00 1.73128415e+00 5.85234156e-01 9.34210160e-01 7.27822460e+02
4.07226562e+02 4.33488409e-02 1.31415294e+01 2.72343470e+00 1.73840125e+00 5.90705632e-01 9.33569390e-01 7.30313185e+02
4.08691406e+02 4.32828515e-02 1.31845526e+01 2.73536905e+00 1.74557417e+00 5.96191114e-01 9.32932544e-01 7.32826329e+02
4.10156250e+02 4.32172508e-02 1.32273189e+01 2.74740262e+00 1.75279991e+00 6.01639119e-01 9.32299456e-01 7.35360480e+02
4.11621094e+02 4.31527352e-02 1.32698194e+01 2.75953161e+00 1.76007564e+00 6.07026525e-01 9.31669964e-01 7.37914322e+02
4.13085938e+02 4.30892261e-02 1.33120554e+01 2.77175322e+00 1.76739872e+00 6.12410027e-01 9.31043981e-01 7.40486671e+02
4.14550781e+02 4.30262037e-02 1.33540683e+01 2.78406817e+00 1.77476818e+00 6.17750396e-01 9.30421732e-01 7.43077297e+02
4.16015625e+02 4.29620872e-02 1.33994712e+01 2.79983683e+00 1.78560149e+00 6.24654205e-01 9.29779673e-01 7.47097186e+02
4.17480469e+02 4.28963838e-02 1.34449461e+01 2.81193804e+00 1.79284644e+00 6.29955269e-01 9.29115887e-01 7.49592949e+02
4.18945312e+02 4.28296185e-02 1.34901087e+01 2.82413827e+00 1.80014162e+00 6.35258526e-01 9.28456217e-01 7.52108703e+02
4.20410156e+02 4.27623740e-02 1.35349389e+01 2.83643152e+00 1.80748278e+00 6.40537415e-01 9.27800338e-01 7.54642410e+02
4.21875000e+02 4.26940636e-02 1.35795107e+01 2.84882148e+00 1.81487268e+00 6.45881673e-01 9.27148729e-01 7.57195604e+02
4.23339844e+02 4.26248487e-02 1.36238815e+01 2.86131333e+00 1.82231552e+00 6.51290053e-01 9.26501990e-01 7.59770529e+02
4.24804688e+02 4.25553096e-02 1.36680627e+01 2.87390693e+00 1.82981169e+00 6.56700826e-01 9.25860288e-01 7.62367490e+02
4.26269531e+02 4.24856700e-02 1.37120552e+01 2.88659965e+00 1.83735906e+00 6.62082841e-01 9.25223581e-01 7.64985569e+02
4.27734375e+02 4.24154078e-02 1.37558743e+01 2.89938982e+00 1.84495599e+00 6.67453255e-01 9.24591900e-01 7.67624113e+02
4.29199219e+02 4.23455475e-02 1.37995540e+01 2.91227914e+00 1.85260428e+00 6.72803376e-01 9.23965547e-01 7.70284136e+02
4.30664062e+02 4.22775573e-02 1.38476378e+01 2.92852530e+00 1.86369065e+00 6.79721331e-01 9.23304374e-01 7.74339176e+02
4.32128906e+02 4.22107327e-02 1.38945278e+01 2.94114915e+00 1.87119178e+00 6.84778312e-01 9.22635442e-01 7.76892534e+02
4.33593750e+02 4.21450712e-02 1.39410182e+01 2.95386284e+00 1.87874041e+00 6.89848001e-01 9.21970948e-01 7.79464836e+02
4.35058594e+02 4.20804395e-02 1.39871655e+01 2.96666786e+00 1.88633716e+00 6.94867209e-01 9.21311155e-01 7.82056561e+02
4.36523438e+02 4.20161849e-02 1.40329924e+01 2.97956407e+00 1.89398195e+00 6.99834349e-01 9.20656199e-01 7.84667802e+02
4.37988281e+02 4.19524201e-02 1.40785114e+01 2.99255114e+00 1.90167517e+00 7.04773076e-01 9.20006209e-01 7.87298833e+02
4.39453125e+02 4.18898826e-02 1.41237765e+01 3.00563293e+00 1.90941964e+00 7.09616552e-01 9.19361635e-01 7.89951224e+02
4.40917969e+02 4.18281798e-02 1.41688178e+01 3.01881067e+00 1.91721538e+00 7.14423180e-01 9.18722720e-01 7.92625197e+02
4.42382812e+02 4.17663729e-02 1.42136499e+01 3.03208307e+00 1.92506025e+00 7.19219646e-01 9.18089516e-01 7.95319933e+02
