x utau delta99 delta* theta beta Ue Reth 
2.00683594e+02 5.10136848e-02 8.28884238e+00 1.53890232e+00 9.76317710e-01 5.90399757e-02 9.87102520e-01 4.33676552e+02
2.02148438e+02 5.09563099e-02 8.31737795e+00 1.54507139e+00 9.80346187e-01 6.07027176e-02 9.86925941e-01 4.35388087e+02
2.03613281e+02 5.08987998e-02 8.34576740e+00 1.55127896e+00 9.84397404e-01 6.24017153e-02 9.86751657e-01 4.37110096e+02
2.05078125e+02 5.08419344e-02 8.37692230e+00 1.56011643e+00 9.91074350e-01 6.42521816e-02 9.86562129e-01 4.39990389e+02
2.06542969e+02 5.07861554e-02 8.40770021e+00 1.56619519e+00 9.95055207e-01 6.60000227e-02 9.86346989e-01 4.41661368e+02
2.08007812e+02 5.07308995e-02 8.43824293e+00 1.57231666e+00 9.99063449e-01 6.77806879e-02 9.86133864e-01 4.43344634e+02
2.09472656e+02 5.06762264e-02 8.46855606e+00 1.57848152e+00 1.00309921e+00 6.95769490e-02 9.85922730e-01 4.45040241e+02
2.10937500e+02 5.06228665e-02 8.49863122e+00 1.58468849e+00 1.00716099e+00 7.14058861e-02 9.85713315e-01 4.46747397e+02
2.12402344e+02 5.05706427e-02 8.52844785e+00 1.59093366e+00 1.01124518e+00 7.32761242e-02 9.85505013e-01 4.48464239e+02
2.13867188e+02 5.05188679e-02 8.55802035e+00 1.59721772e+00 1.01535200e+00 7.51948412e-02 9.85297833e-01 4.50190857e+02
2.15332031e+02 5.04674383e-02 8.58734524e+00 1.60354008e+00 1.01948115e+00 7.71697676e-02 9.85091571e-01 4.51927031e+02
2.16796875e+02 5.04158004e-02 8.61639923e+00 1.60989683e+00 1.02363043e+00 7.91899802e-02 9.84885590e-01 4.53671486e+02
2.18261719e+02 5.03644706e-02 8.64524836e+00 1.61629259e+00 1.02780398e+00 8.12394673e-02 9.84680415e-01 4.55426300e+02
2.19726562e+02 5.03142166e-02 8.67396924e+00 1.62273434e+00 1.03200601e+00 8.33472857e-02 9.84476911e-01 4.57193741e+02
2.21191406e+02 5.02643484e-02 8.70572993e+00 1.63179361e+00 1.03884074e+00 8.56424359e-02 9.84246856e-01 4.60114080e+02
2.22656250e+02 5.02144388e-02 8.73641136e+00 1.63808500e+00 1.04295331e+00 8.77959918e-02 9.83997564e-01 4.61818583e+02
2.24121094e+02 5.01643073e-02 8.76678892e+00 1.64441611e+00 1.04708674e+00 8.99808119e-02 9.83748119e-01 4.63531327e+02
2.25585938e+02 5.01137822e-02 8.79695992e+00 1.65079472e+00 1.05124533e+00 9.22078977e-02 9.83499366e-01 4.65254603e+02
2.27050781e+02 5.00628645e-02 8.82696781e+00 1.65722593e+00 1.05543201e+00 9.44589837e-02 9.83251833e-01 4.66989956e+02
2.28515625e+02 5.00114245e-02 8.85683063e+00 1.66371188e+00 1.05964798e+00 9.67542191e-02 9.83005674e-01 4.68737987e+02
2.29980469e+02 4.99588244e-02 8.88656960e+00 1.67025414e+00 1.06389440e+00 9.91300399e-02 9.82760976e-01 4.70499256e+02
2.31445312e+02 4.99046633e-02 8.91617748e+00 1.67685136e+00 1.06817115e+00 1.01583523e-01 9.82517476e-01 4.72273569e+02
2.32910156e+02 4.98496102e-02 8.94567367e+00 1.68350346e+00 1.07247952e+00 1.04116398e-01 9.82275129e-01 4.74061481e+02
2.34375000e+02 4.97943950e-02 8.97503537e+00 1.69020683e+00 1.07681802e+00 1.06736040e-01 9.82033407e-01 4.75862070e+02
2.35839844e+02 4.97396044e-02 9.00427277e+00 1.69696095e+00 1.08118681e+00 1.09423725e-01 9.81792167e-01 4.77675332e+02
2.37304688e+02 4.96855373e-02 9.03685565e+00 1.70636896e+00 1.08822992e+00 1.12384804e-01 9.81521653e-01 4.80654555e+02
2.38769531e+02 4.96318810e-02 9.06845072e+00 1.71300840e+00 1.09253960e+00 1.15148451e-01 9.81236959e-01 4.82418104e+02
2.40234375e+02 4.95785158e-02 9.09991310e+00 1.71970666e+00 1.09688613e+00 1.17988554e-01 9.80952893e-01 4.84197131e+02
2.41699219e+02 4.95257368e-02 9.13123219e+00 1.72646428e+00 1.10126883e+00 1.20857038e-01 9.80669368e-01 4.85991275e+02
2.43164062e+02 4.94727165e-02 9.16242923e+00 1.73328421e+00 1.10568859e+00 1.23771729e-01 9.80386589e-01 4.87801018e+02
2.44628906e+02 4.94185537e-02 9.19347893e+00 1.74016248e+00 1.11014250e+00 1.26803210e-01 9.80103952e-01 4.89624774e+02
2.46093750e+02 4.93641896e-02 9.22437121e+00 1.74709644e+00 1.11463017e+00 1.29927439e-01 9.79821019e-01 4.91462131e+02
2.47558594e+02 4.93106314e-02 9.25512980e+00 1.75408927e+00 1.11915482e+00 1.33100102e-01 9.79538021e-01 4.93314613e+02
2.49023438e+02 4.92581178e-02 9.28576521e+00 1.76114446e+00 1.12371851e+00 1.36291963e-01 9.79255208e-01 4.95183242e+02
2.50488281e+02 4.92067093e-02 9.31626113e+00 1.76826229e+00 1.12832002e+00 1.39530041e-01 9.78972427e-01 4.97067386e+02
2.51953125e+02 4.91556671e-02 9.34823015e+00 1.77824711e+00 1.13573297e+00 1.43143251e-01 9.78691419e-01 5.00189451e+02
2.53417969e+02 4.91036494e-02 9.38100813e+00 1.78524601e+00 1.14026520e+00 1.46484154e-01 9.78361898e-01 5.02016413e+02
2.54882812e+02 4.90506790e-02 9.41358833e+00 1.79231036e+00 1.14483387e+00 1.49898554e-01 9.78031698e-01 5.03857717e+02
2.56347656e+02 4.89974896e-02 9.44604688e+00 1.79944755e+00 1.14944318e+00 1.53377615e-01 9.77701568e-01 5.05715581e+02
2.57812500e+02 4.89441618e-02 9.47838815e+00 1.80665751e+00 1.15409243e+00 1.56948010e-01 9.77371388e-01 5.07589616e+02
2.59277344e+02 4.88902555e-02 9.51061291e+00 1.81393844e+00 1.15878002e+00 1.60589254e-01 9.77040822e-01 5.09478923e+02
2.60742188e+02 4.88347947e-02 9.54273867e+00 1.82129330e+00 1.16350758e+00 1.64284542e-01 9.76710070e-01 5.11384308e+02
2.62207031e+02 4.87777178e-02 9.57476500e+00 1.82872321e+00 1.16827553e+00 1.68056905e-01 9.76379104e-01 5.13305916e+02
2.63671875e+02 4.87197912e-02 9.60673823e+00 1.83623243e+00 1.17308607e+00 1.71923239e-01 9.76048301e-01 5.15244900e+02
2.65136719e+02 4.86611123e-02 9.63863609e+00 1.84381908e+00 1.17793694e+00 1.75870677e-01 9.75717303e-01 5.17200053e+02
2.66601562e+02 4.86015296e-02 9.67044457e+00 1.85147981e+00 1.18282524e+00 1.79911230e-01 9.75385577e-01 5.19169806e+02
2.68066406e+02 4.85412484e-02 9.70506067e+00 1.86192929e+00 1.19049376e+00 1.84374726e-01 9.75030884e-01 5.22345681e+02
2.69531250e+02 4.84798309e-02 9.73914431e+00 1.86947728e+00 1.19531009e+00 1.88561113e-01 9.74649569e-01 5.24253807e+02
2.70996094e+02 4.84175873e-02 9.77296758e+00 1.87710052e+00 1.20016645e+00 1.92819520e-01 9.74266605e-01 5.26176942e+02
2.72460938e+02 4.83553182e-02 9.80659493e+00 1.88480381e+00 1.20506643e+00 1.97171158e-01 9.73882411e-01 5.28116849e+02
2.73925781e+02 4.82939496e-02 9.84003048e+00 1.89258601e+00 1.21000950e+00 2.01649749e-01 9.73496751e-01 5.30073144e+02
2.75390625e+02 4.82340032e-02 9.87330834e+00 1.90044859e+00 1.21499681e+00 2.06209687e-01 9.73109669e-01 5.32046314e+02
2.76855469e+02 4.81737197e-02 9.90647752e+00 1.90839538e+00 1.22003051e+00 2.10848806e-01 9.72721455e-01 5.34037435e+02
2.78320312e+02 4.81116677e-02 9.93953993e+00 1.91642753e+00 1.22511081e+00 2.15616102e-01 9.72332108e-01 5.36046561e+02
2.79785156e+02 4.80482724e-02 9.97254401e+00 1.92454907e+00 1.23024111e+00 2.20517306e-01 9.71941988e-01 5.38075345e+02
2.81250000e+02 4.79838703e-02 1.00055661e+01 1.93276499e+00 1.23542620e+00 2.25565067e-01 9.71551593e-01 5.40126132e+02
2.82714844e+02 4.79191032e-02 1.00408288e+01 1.94390673e+00 1.24349487e+00 2.31173280e-01 9.71152135e-01 5.43430215e+02
2.84179688e+02 4.78544896e-02 1.00765592e+01 1.95204305e+00 1.24864068e+00 2.36409515e-01 9.70713487e-01 5.45432557e+02
2.85644531e+02 4.77898935e-02 1.01121187e+01 1.96026892e+00 1.25383756e+00 2.41748470e-01 9.70273003e-01 5.47454129e+02
2.87109375e+02 4.77252496e-02 1.01475703e+01 1.96859077e+00 1.25908775e+00 2.47153246e-01 9.69831249e-01 5.49496190e+02
2.88574219e+02 4.76604089e-02 1.01829618e+01 1.97701410e+00 1.26439382e+00 2.52632121e-01 9.69388723e-01 5.51560100e+02
2.90039062e+02 4.75948120e-02 1.02182898e+01 1.98553793e+00 1.26975476e+00 2.58234323e-01 9.68945198e-01 5.53645250e+02
2.91503906e+02 4.75290450e-02 1.02535605e+01 1.99416430e+00 1.27517284e+00 2.63937786e-01 9.68500749e-01 5.55752635e+02
2.92968750e+02 4.74637310e-02 1.02887893e+01 2.00289650e+00 1.28065046e+00 2.69705310e-01 9.68055576e-01 5.57883367e+02
2.94433594e+02 4.73979210e-02 1.03239442e+01 2.01173105e+00 1.28618405e+00 2.75584194e-01 9.67609142e-01 5.60035552e+02
2.95898438e+02 4.73310300e-02 1.03589629e+01 2.02066312e+00 1.29176961e+00 2.81586561e-01 9.67160754e-01 5.62206991e+02
2.97363281e+02 4.72636668e-02 1.03963423e+01 2.03252321e+00 1.30025415e+00 2.88180234e-01 9.66694473e-01 5.65626828e+02
2.98828125e+02 4.71962941e-02 1.04337352e+01 2.04135492e+00 1.30577983e+00 2.94349342e-01 9.66192224e-01 5.67735445e+02
3.00292969e+02 4.71290840e-02 1.04709084e+01 2.05028784e+00 1.31136167e+00 3.00584051e-01 9.65687475e-01 5.69864494e+02
3.01757812e+02 4.70625966e-02 1.05079260e+01 2.05932835e+00 1.31700208e+00 3.06877948e-01 9.65180792e-01 5.72015300e+02
3.03222656e+02 4.69959665e-02 1.05448170e+01 2.06847942e+00 1.32269977e+00 3.13255891e-01 9.64672392e-01 5.74187379e+02
3.04687500e+02 4.69273593e-02 1.05815986e+01 2.07774217e+00 1.32845333e+00 3.19774445e-01 9.64162286e-01 5.76380068e+02
3.06152344e+02 4.68566199e-02 1.06182702e+01 2.08711752e+00 1.33426291e+00 3.26421225e-01 9.63650467e-01 5.78593386e+02
3.07617188e+02 4.67846801e-02 1.06548944e+01 2.09661211e+00 1.34013408e+00 3.33176328e-01 9.63137574e-01 5.80830069e+02
3.09082031e+02 4.67124313e-02 1.06914963e+01 2.10622790e+00 1.34606958e+00 3.40065734e-01 9.62623755e-01 5.83091350e+02
3.10546875e+02 4.66393347e-02 1.07280418e+01 2.11596259e+00 1.35206852e+00 3.47117060e-01 9.62108695e-01 5.85376597e+02
3.12011719e+02 4.65656606e-02 1.07680490e+01 2.12854987e+00 1.36094357e+00 3.54998283e-01 9.61554994e-01 5.88879940e+02
3.13476562e+02 4.64932034e-02 1.08070381e+01 2.13818671e+00 1.36688451e+00 3.62221120e-01 9.60984138e-01 5.91099450e+02
3.14941406e+02 4.64215101e-02 1.08459366e+01 2.14794710e+00 1.37289434e+00 3.69529368e-01 9.60411710e-01 5.93344708e+02
3.16406250e+02 4.63482508e-02 1.08847689e+01 2.15783400e+00 1.37897294e+00 3.76996875e-01 9.59837963e-01 5.95615758e+02
3.17871094e+02 4.62731594e-02 1.09235111e+01 2.16784664e+00 1.38511910e+00 3.84629558e-01 9.59262760e-01 5.97911928e+02
3.19335938e+02 4.61972332e-02 1.09621645e+01 2.17798623e+00 1.39133387e+00 3.92342986e-01 9.58686168e-01 6.00233643e+02
3.20800781e+02 4.61215693e-02 1.10007483e+01 2.18825381e+00 1.39761747e+00 4.00114937e-01 9.58108265e-01 6.02580984e+02
3.22265625e+02 4.60461727e-02 1.10392660e+01 2.19864958e+00 1.40396753e+00 4.08001259e-01 9.57529043e-01 6.04952859e+02
3.23730469e+02 4.59690882e-02 1.10777175e+01 2.20917465e+00 1.41038237e+00 4.16019332e-01 9.56948595e-01 6.07348541e+02
3.25195312e+02 4.58895870e-02 1.11189960e+01 2.22270037e+00 1.41977140e+00 4.25057214e-01 9.56344805e-01 6.11005950e+02
3.26660156e+02 4.58083645e-02 1.11602654e+01 2.23315041e+00 1.42613389e+00 4.33264153e-01 9.55710104e-01 6.13336757e+02
3.28125000e+02 4.57262174e-02 1.12013249e+01 2.24373203e+00 1.43256635e+00 4.41577638e-01 9.55073685e-01 6.15692891e+02
3.29589844e+02 4.56444405e-02 1.12421995e+01 2.25444560e+00 1.43906887e+00 4.49984007e-01 9.54435562e-01 6.18074326e+02
3.31054688e+02 4.55632779e-02 1.12829903e+01 2.26529935e+00 1.44564664e+00 4.58467069e-01 9.53796577e-01 6.20483769e+02
3.32519531e+02 4.54821821e-02 1.13237855e+01 2.27630296e+00 1.45230585e+00 4.67009393e-01 9.53157711e-01 6.22924432e+02
3.33984375e+02 4.54003508e-02 1.13645829e+01 2.28745885e+00 1.45904758e+00 4.75669181e-01 9.52519210e-01 6.25396882e+02
3.35449219e+02 4.53182256e-02 1.14053197e+01 2.29876292e+00 1.46586862e+00 4.84457401e-01 9.51880701e-01 6.27899421e+02
3.36914062e+02 4.52364205e-02 1.14460176e+01 2.31021550e+00 1.47276852e+00 4.93351005e-01 9.51242307e-01 6.30431877e+02
3.38378906e+02 4.51549530e-02 1.14897959e+01 2.32468558e+00 1.48267451e+00 5.03489758e-01 9.50576339e-01 6.34227887e+02
3.39843750e+02 4.50740058e-02 1.15333144e+01 2.33604702e+00 1.48951722e+00 5.12507257e-01 9.49881952e-01 6.36689485e+02
3.41308594e+02 4.49939191e-02 1.15766220e+01 2.34754872e+00 1.49643544e+00 5.21581788e-01 9.49186385e-01 6.39178264e+02
3.42773438e+02 4.49133517e-02 1.16197907e+01 2.35919713e+00 1.50343190e+00 5.30737741e-01 9.48490351e-01 6.41695792e+02
3.44238281e+02 4.48310997e-02 1.16628497e+01 2.37099672e+00 1.51050854e+00 5.40038456e-01 9.47794352e-01 6.44243159e+02
3.45703125e+02 4.47476158e-02 1.17058317e+01 2.38295032e+00 1.51766755e+00 5.49441020e-01 9.47098784e-01 6.46821490e+02
3.47167969e+02 4.46639118e-02 1.17487469e+01 2.39505964e+00 1.52491036e+00 5.58896654e-01 9.46403943e-01 6.49431530e+02
3.48632812e+02 4.45807367e-02 1.17915686e+01 2.40732116e+00 1.53223378e+00 5.68459111e-01 9.45709640e-01 6.52071718e+02
3.50097656e+02 4.44972079e-02 1.18356304e+01 2.42287735e+00 1.54273616e+00 5.79545650e-01 9.45021141e-01 6.56063228e+02
3.51562500e+02 4.44135262e-02 1.18820023e+01 2.43507085e+00 1.55001860e+00 5.89219336e-01 9.44275048e-01 6.58639749e+02
3.53027344e+02 4.43294877e-02 1.19281324e+01 2.44741510e+00 1.55738343e+00 5.98976871e-01 9.43529102e-01 6.61246464e+02
3.54492188e+02 4.42442186e-02 1.19739897e+01 2.45990614e+00 1.56482736e+00 6.08863763e-01 9.42783059e-01 6.63881725e+02
3.55957031e+02 4.41580320e-02 1.20195603e+01 2.47254148e+00 1.57234834e+00 6.18832944e-01 9.42036819e-01 6.66544512e+02
3.57421875e+02 4.40720470e-02 1.20649039e+01 2.48532530e+00 1.57994828e+00 6.28859537e-01 9.41290944e-01 6.69235953e+02
3.58886719e+02 4.39868456e-02 1.21100647e+01 2.49826229e+00 1.58762869e+00 6.38886897e-01 9.40546038e-01 6.71957045e+02
3.60351562e+02 4.39023811e-02 1.21550503e+01 2.51135348e+00 1.59538852e+00 6.48901390e-01 9.39802317e-01 6.74707421e+02
3.61816406e+02 4.38181470e-02 1.21999261e+01 2.52460217e+00 1.60322870e+00 6.58961328e-01 9.39060257e-01 6.77487761e+02
3.63281250e+02 4.37337927e-02 1.22486137e+01 2.54088375e+00 1.61412343e+00 6.70640269e-01 9.38282752e-01 6.81526880e+02
3.64746094e+02 4.36503104e-02 1.22966600e+01 2.55402463e+00 1.62189858e+00 6.80632492e-01 9.37486872e-01 6.84228880e+02
3.66210938e+02 4.35677712e-02 1.23443785e+01 2.56732176e+00 1.62975799e+00 6.90592750e-01 9.36692299e-01 6.86961792e+02
3.67675781e+02 4.34854831e-02 1.23917819e+01 2.58077492e+00 1.63770105e+00 7.00577728e-01 9.35899223e-01 6.89725411e+02
3.69140625e+02 4.34044765e-02 1.24388479e+01 2.59437835e+00 1.64572252e+00 7.10543643e-01 9.35107327e-01 6.92517233e+02
3.70605469e+02 4.33241853e-02 1.24856211e+01 2.60813528e+00 1.65382120e+00 7.20485640e-01 9.34317112e-01 6.95337053e+02
3.72070312e+02 4.32420353e-02 1.25321386e+01 2.62204985e+00 1.66199740e+00 7.30504769e-01 9.33529159e-01 6.98185365e+02
3.73535156e+02 4.31586193e-02 1.25784075e+01 2.63611919e+00 1.67024878e+00 7.40560619e-01 9.32743440e-01 7.01061119e+02
3.75000000e+02 4.30748146e-02 1.26280928e+01 2.65327736e+00 1.68160250e+00 7.52369547e-01 9.31926278e-01 7.05208300e+02
3.76464844e+02 4.29906849e-02 1.26774790e+01 2.66721020e+00 1.68976660e+00 7.62426538e-01 9.31087649e-01 7.07994363e+02
3.77929688e+02 4.29051472e-02 1.27266004e+01 2.68130705e+00 1.69801519e+00 7.72479337e-01 9.30252088e-01 7.10811981e+02
3.79394531e+02 4.28175693e-02 1.27754588e+01 2.69556931e+00 1.70634761e+00 7.82561027e-01 9.29419910e-01 7.13661048e+02
3.80859375e+02 4.27288007e-02 1.28240055e+01 2.70999273e+00 1.71475991e+00 7.92695795e-01 9.28590975e-01 7.16539759e+02
3.82324219e+02 4.26399531e-02 1.28722798e+01 2.72457842e+00 1.72325222e+00 8.02878443e-01 9.27765667e-01 7.19448409e+02
3.83789062e+02 4.25510658e-02 1.29203439e+01 2.73932834e+00 1.73182553e+00 8.13070802e-01 9.26944458e-01 7.22387735e+02
3.85253906e+02 4.24618025e-02 1.29682486e+01 2.75424393e+00 1.74048087e+00 8.23248978e-01 9.26127779e-01 7.25358458e+02
3.86718750e+02 4.23736810e-02 1.30202639e+01 2.77229022e+00 1.75228795e+00 8.35346420e-01 9.25280355e-01 7.29610927e+02
3.88183594e+02 4.22872313e-02 1.30717823e+01 2.78708720e+00 1.76087209e+00 8.45288410e-01 9.24416360e-01 7.32500536e+02
3.89648438e+02 4.22011467e-02 1.31228290e+01 2.80203528e+00 1.76953097e+00 8.55189719e-01 9.23555690e-01 7.35417180e+02
3.91113281e+02 4.21141419e-02 1.31735054e+01 2.81714271e+00 1.77826831e+00 8.65107756e-01 9.22699318e-01 7.38363129e+02
3.92578125e+02 4.20253731e-02 1.32238384e+01 2.83240965e+00 1.78708269e+00 8.75082416e-01 9.21847529e-01 7.41337992e+02
3.94042969e+02 4.19346563e-02 1.32737584e+01 2.84782559e+00 1.79596617e+00 8.85113003e-01 9.20999700e-01 7.44337935e+02
3.95507812e+02 4.18438127e-02 1.33232943e+01 2.86338890e+00 1.80491705e+00 8.95202225e-01 9.20155988e-01 7.47362354e+02
3.96972656e+02 4.17540905e-02 1.33736183e+01 2.88245117e+00 1.81722984e+00 9.07346981e-01 9.19323695e-01 7.51780105e+02
3.98437500e+02 4.16649763e-02 1.34272470e+01 2.89789006e+00 1.82609818e+00 9.17152094e-01 9.18436604e-01 7.54719935e+02
3.99902344e+02 4.15758867e-02 1.34804184e+01 2.91349149e+00 1.83504735e+00 9.26911571e-01 9.17555047e-01 7.57690629e+02
4.01367188e+02 4.14883344e-02 1.35331556e+01 2.92925267e+00 1.84407646e+00 9.36595751e-01 9.16679077e-01 7.60691840e+02
4.02832031e+02 4.14040598e-02 1.35854819e+01 2.94517133e+00 1.85318333e+00 9.46089529e-01 9.15808798e-01 7.63722718e+02
4.04296875e+02 4.13205788e-02 1.36374461e+01 2.96124931e+00 1.86236732e+00 9.55514005e-01 9.14944681e-01 7.66783383e+02
4.05761719e+02 4.12355545e-02 1.36890809e+01 2.97748647e+00 1.87162749e+00 9.64956852e-01 9.14087037e-01 7.69873692e+02
4.07226562e+02 4.11481607e-02 1.37404673e+01 2.99388796e+00 1.88096714e+00 9.74492511e-01 9.13236607e-01 7.72995620e+02
4.08691406e+02 4.10598265e-02 1.37946503e+01 3.01365103e+00 1.89362297e+00 9.86475706e-01 9.12377104e-01 7.77464210e+02
4.10156250e+02 4.09727439e-02 1.38499606e+01 3.02989511e+00 1.90287266e+00 9.95831700e-01 9.11484791e-01 7.80497770e+02
4.11621094e+02 4.08877305e-02 1.39046156e+01 3.04628335e+00 1.91219440e+00 1.00501728e+00 9.10598156e-01 7.83558314e+02
4.13085938e+02 4.08023508e-02 1.39587279e+01 3.06282005e+00 1.92158968e+00 1.01420653e+00 9.09717856e-01 7.86647000e+02
4.14550781e+02 4.07150075e-02 1.40124008e+01 3.07951046e+00 1.93106201e+00 1.02351690e+00 9.08844647e-01 7.89765918e+02
4.16015625e+02 4.06277450e-02 1.40656722e+01 3.09635541e+00 1.94061200e+00 1.03282549e+00 9.07978922e-01 7.92915657e+02
4.17480469e+02 4.05412531e-02 1.41184831e+01 3.11334401e+00 1.95023163e+00 1.04205612e+00 9.07120115e-01 7.96092453e+02
4.18945312e+02 4.04558442e-02 1.41708768e+01 3.13047317e+00 1.95991812e+00 1.05116277e+00 9.06268295e-01 7.99295243e+02
4.20410156e+02 4.03717449e-02 1.42285230e+01 3.15072246e+00 1.97281853e+00 1.06256583e+00 9.05377524e-01 8.03765501e+02
4.21875000e+02 4.02876859e-02 1.42849244e+01 3.16766998e+00 1.98240515e+00 1.07131772e+00 9.04486352e-01 8.06876279e+02
4.23339844e+02 4.02028779e-02 1.43407735e+01 3.18476683e+00 1.99206408e+00 1.08007934e+00 9.03602951e-01 8.10015742e+02
4.24804688e+02 4.01176086e-02 1.43960659e+01 3.20200805e+00 2.00179059e+00 1.08886077e+00 9.02727209e-01 8.13181872e+02
4.26269531e+02 4.00314935e-02 1.44508220e+01 3.21939035e+00 2.01158191e+00 1.09761378e+00 9.01859159e-01 8.16373607e+02
4.27734375e+02 3.99434178e-02 1.45051191e+01 3.23691685e+00 2.02144074e+00 1.10645235e+00 9.00999342e-01 8.19592549e+02
4.29199219e+02 3.98543226e-02 1.45589901e+01 3.25458599e+00 2.03136837e+00 1.11531714e+00 9.00147921e-01 8.22839408e+02
4.30664062e+02 3.97679563e-02 1.46161605e+01 3.27556935e+00 2.04463284e+00 1.12646304e+00 8.99277457e-01 8.27411501e+02
4.32128906e+02 3.96848112e-02 1.46735627e+01 3.29297853e+00 2.05442157e+00 1.13463365e+00 8.98384741e-01 8.30547446e+02
4.33593750e+02 3.96040212e-02 1.47302847e+01 3.31052500e+00 2.06427975e+00 1.14261975e+00 8.97500007e-01 8.33710992e+02
4.35058594e+02 3.95257126e-02 1.47863824e+01 3.32821028e+00 2.07420452e+00 1.15040417e+00 8.96623606e-01 8.36901331e+02
4.36523438e+02 3.94472810e-02 1.48419058e+01 3.34603288e+00 2.08419064e+00 1.15807929e+00 8.95755688e-01 8.40116531e+02
4.37988281e+02 3.93677367e-02 1.48969160e+01 3.36399297e+00 2.09423652e+00 1.16572724e+00 8.94896523e-01 8.43356240e+02
4.39453125e+02 3.92875555e-02 1.49514608e+01 3.38209346e+00 2.10434359e+00 1.17343081e+00 8.94046596e-01 8.46621551e+02
4.40917969e+02 3.92075705e-02 1.50076165e+01 3.40376071e+00 2.11793245e+00 1.18376705e+00 8.93200803e-01 8.51282535e+02
4.42382812e+02 3.91278459e-02 1.50660458e+01 3.42161654e+00 2.12789411e+00 1.19114534e+00 8.92314805e-01 8.54438136e+02
